# Cosmological parameters
# z 0.56
# name nseries
# H0 70.0
# Omega_k 0.0
# Omega_b 0.047
# Omega_c 0.23900000000000005
# Omega_m 0.2860000000000001
# Omega_de 0.7139146242997069
# Omega_nu 0.0
# N_eff 3.046
# mass_neutrinos 0.0
# n_s 0.96
# A_s 2.14681e-09
# H_z 93.91994797458759
# D_A 1341.4585487050722
# D_M 2092.6753359799127
# D_H 3191.9998303354723
# D_V 1985.5684620953912
# r_drag 147.15240140926014
# DM_rd 14.221142950700246
# DH_rd 21.691795714960065
# DV_rd 13.493279369414637
# sigma8 0.6190097729325262
# fsigma_8 0.4689022847302364
# f 0.7575038476514457
# 
# k[h/Mpc]  P_lin(k)
1.05e-05    33.773637201983625
1.0582751204153106e-05    34.02912067795465
1.0666154576095624e-05    34.286536741517054
1.0750215255605631e-05    34.54590000495402
1.0834938422968154e-05    34.80722519093386
1.092032929929438e-05    35.07052713334321
1.1006393146843435e-05    35.33582077812438
1.1093135269346655e-05    35.60312118412283
1.118056101233444e-05    35.87244352431496
1.1268675763465675e-05    36.143803096986765
1.1357484952859742e-05    36.4172153282211
1.1446994053431166e-05    36.692695761784634
1.153720858122687e-05    36.97026005940627
1.1628134095766115e-05    37.249924001674025
1.1719776200383111e-05    37.531703488942036
1.1812140542572315e-05    37.81561454223983
1.1905232814336468e-05    38.10167330419401
1.1999058752537366e-05    38.389896039951886
1.2093624139249399e-05    38.68029913811569
1.2188934802115873e-05    38.972899111683006
1.2284996614708141e-05    39.26771259899212
1.2381815496887565e-05    39.564756359727255
1.247939741517033e-05    39.86404724844481
1.2577748383095143e-05    40.16560223389456
1.2676874461593802e-05    40.469438412457365
1.2776781759364725e-05    40.77557300913312
1.287747643324938e-05    41.084023378501094
1.2978964688611728e-05    41.39480700569249
1.3081252779720611e-05    41.70794150736326
1.3184347010135188e-05    42.0234446326809
1.328825373309339e-05    42.3413342643133
1.3392979351903437e-05    42.66162841942847
1.3498530320338459e-05    42.98434525070003
1.3604913143034196e-05    43.309503047439605
1.3712134375889864e-05    43.63712025528803
1.3820200626472158e-05    43.96721549829693
1.3929118554422455e-05    44.29980754681174
1.4038894871867203e-05    44.63491531377953
1.4149536343831574e-05    44.972557855836655
1.4261049788656358e-05    45.31275437440399
1.4373442078418141e-05    45.65552421679508
1.4486720139352811e-05    46.00088687732616
1.4600890952282385e-05    46.348861998439524
1.4715961553045204e-05    46.699469371834425
1.483193903292952e-05    47.05272893960636
1.494883053911051e-05    47.40866079539466
1.5066643275090714e-05    47.767285183945695
1.5185384501143958e-05    48.12862248070205
1.5305061534762776e-05    48.492693197914114
1.542568175110935e-05    48.859518002337445
1.554725258347001e-05    49.22911771681557
1.566978152371331e-05    49.601513321457496
1.579327612275173e-05    49.9767259548233
1.591774399100699e-05    50.35477691511943
1.6043192798879057e-05    50.73568766140062
1.616963027721884e-05    51.11947981478478
1.6297064217804594e-05    51.50617515967402
1.6425502473822102e-05    51.89579564498597
1.6554952960348637e-05    52.28836338539291
1.6685423654840725e-05    52.683900661180296
1.6816922597625754e-05    53.08242991512673
1.6949457892397484e-05    53.48397375785411
1.708303770671541e-05    53.88855497053061
1.7217670272508142e-05    54.29619650615379
1.735336388658064e-05    54.70692149084175
1.749012691112555e-05    55.12075322513552
1.7627967774238534e-05    55.53771518531184
1.7766894970437622e-05    55.95783102470272
1.7906917061186715e-05    56.381124575029936
1.8048042675423193e-05    56.80761984774276
1.8190280510089664e-05    57.23734103537254
1.8333639330669926e-05    57.67031251344827
1.8478127971729135e-05    58.10655886637173
1.862375533745826e-05    58.546104899363684
1.877053040222279e-05    58.98897560864527
1.891846221111578e-05    59.435196180387166
1.9067559880515297e-05    59.88479199215768
1.9217832598646165e-05    60.33778861438539
1.9369289626146244e-05    60.79421181183019
1.952194029663709e-05    61.25408754506998
1.9675794017299166e-05    61.717441971992905
1.9830860269451546e-05    62.184301449306105
1.9987148609136224e-05    62.65469253405275
2.0144668667707002e-05    63.12864198514379
2.0303430152423015e-05    63.60617675815308
2.046344284704697e-05    64.08732395626798
2.0624716612448056e-05    64.57211085845418
2.0787261387209646e-05    65.06056494872102
2.095108718824174e-05    65.55271391786748
2.1116204111398287e-05    66.04858566502877
2.1282622332099337e-05    66.54820829923598
2.1450352105958102e-05    67.05161014098584
2.1619403769412976e-05    67.55881972382325
2.1789787740364513e-05    68.06986579593497
2.1961514518817446e-05    68.58477732175551
2.2134594687527743e-05    69.10358348358379
2.2309038912654782e-05    69.62631368325243
2.2484857944418657e-05    70.1529975628052
2.2662062617762677e-05    70.68366503793344
2.2840663853021055e-05    71.21834625907475
2.3020672656591902e-05    71.75707160520057
2.320210012161547e-05    72.29987168555238
2.3384957428657818e-05    72.8467773413881
2.356925584639978e-05    73.39781964774723
2.3755006732331424e-05    73.9530299152271
2.3942221533451955e-05    74.51243969177148
2.413091178697516e-05    75.07608076447366
2.4321089121040354e-05    75.64398516139343
2.4512765255429037e-05    76.21618515339028
2.470595200228706e-05    76.7927132550924
2.4900661266852594e-05    77.37360220976156
2.5096905048189806e-05    77.95888499173687
2.5294695439928272e-05    78.54859482389377
2.5494044631008287e-05    79.14276518014704
2.5694964906432002e-05    79.7414297873477
2.5897468648020486e-05    80.34462262719077
2.6101568335176775e-05    80.95237793814015
2.630727654565492e-05    81.56473021736458
2.651460595633509e-05    82.18171422269394
2.6723569344004787e-05    82.80336497458546
2.6934179586146267e-05    83.42971775810412
2.714644966173004e-05    84.06080812492284
2.7360392652014793e-05    84.6966718962222
2.7576021741353463e-05    85.33734516853995
2.7793350218005773e-05    85.98286431280903
2.801239147495711e-05    86.63326597493035
2.8233159010743865e-05    87.28858707785002
2.8455666430285313e-05    87.94886482365195
2.867992744572201e-05    88.61413669566821
2.8905955877260796e-05    89.28444046060473
2.9133765654026495e-05    89.95981417068087
2.936337081492032e-05    90.64029616578856
2.9594785509484977e-05    91.32592507566744
2.9828023998776676e-05    92.01673982209141
3.0063100656243963e-05    92.71277962095218
3.0300029968613516e-05    93.41408397431664
3.0538826536782855e-05    94.1206926648134
3.077950507672015e-05    94.83264577340132
3.102208042037113e-05    95.54998368334942
3.1266567516573064e-05    96.27274708250647
3.1512981431976e-05    97.00097696559706
3.1761337351971285e-05    97.73471463652442
3.201165058162735e-05    98.4740017107012
3.22639365466329e-05    99.2188801173866
3.25182107942475e-05    99.96939210205268
3.277448899425974e-05    100.72558022875802
3.303278693995286e-05    101.48748738254599
3.329312054907802e-05    102.25515677581211
3.355550586483523e-05    103.02863199133446
3.381995905686207e-05    103.80795696964213
3.408649642223008e-05    104.59317598478515
3.435513438644914e-05    105.38433364644906
3.4625889504479664e-05    106.1814749025058
3.489877846175283e-05    106.98464504158045
3.517381807519878e-05    107.79388969564573
3.5451025294283076e-05    108.6092548426265
3.5730417202051096e-05    109.43078680903497
3.601201101618086e-05    110.25853227261484
3.62958240900441e-05    111.09253826501431
3.658187391377558e-05    111.9328521744698
3.687017811535101e-05    112.77952172433501
3.7160754461673376e-05    113.63259491821174
3.7453620859667804e-05    114.492120104336
3.774879535738509e-05    115.35814599473163
3.8046296145113926e-05    116.2307216679364
3.834614155650192e-05    117.10989657174179
3.864835006968536e-05    117.99572052596179
3.8952940308427946e-05    118.8882437252119
3.9259931043268576e-05    119.78751674171814
3.956934119267795e-05    120.69359052814022
3.988118982422455e-05    121.60651642042114
4.019549615574962e-05    122.52634614065501
4.051227955655151e-05    123.45313180192927
4.083155954857932e-05    124.38692596888467
4.115335580763591e-05    125.32778167209585
4.14776881645905e-05    126.27575234783359
4.180457660660069e-05    127.23089183736474
4.2134041278344214e-05    128.19325439003077
4.246610248326038e-05    129.1628946663444
4.2800780684801246e-05    130.1398677411184
4.3138096507692706e-05    131.12422910660823
4.3478070739205515e-05    132.1160346756916
4.3820724330436305e-05    133.1153407850536
4.4166078397598685e-05    134.1222041984185
4.4514154223324576e-05    135.1366821097863
4.486497325797574e-05    136.15883213117297
4.521855712096569e-05    137.18871220545128
4.557492760209197e-05    138.2263806680634
4.5934106662879e-05    139.2718962927546
4.629611643793143e-05    140.3253182949769
4.666097923629822e-05    141.38670633519294
4.7028717542847436e-05    142.45612052219562
4.739935401965192e-05    143.5336214164616
4.777291150738579e-05    144.61927003351832
4.8149413026732074e-05    145.71312784734835
4.852888177980136e-05    146.81525679380798
4.891134115156158e-05    147.92571927407613
4.9296814711279224e-05    149.04457815837432
4.9685326213971684e-05    150.17189683385624
5.007689960187132e-05    151.30773926173347
5.0471559005900764e-05    152.45216989959684
5.086932874716008e-05    153.60525369276795
5.127023333842559e-05    154.76705607799815
5.167429748566041e-05    155.93764298718614
5.2081546089537e-05    157.11708085113378
5.249200424697174e-05    158.30543660332253
5.290569725267145e-05    159.502777683722
5.3322650600692246e-05    160.70917204262616
5.374288998601059e-05    161.9246881445193
5.4166441306106813e-05    163.14939497197523
5.459333066256101e-05    164.38336202460835
5.502358436266154e-05    165.62665925178047
5.545722892102634e-05    166.87935707073785
5.5894291061236775e-05    168.14152642680043
5.6334797717484537e-05    169.41323879886903
5.677877603623155e-05    170.69456620341253
5.7226253377882766e-05    171.98558119849045
5.7677257318472353e-05    173.2863568878084
5.813181565136303e-05    174.5969669247987
5.858995638895891e-05    175.9174855167336
5.9051707764431726e-05    177.24798742886546
5.951709823346068e-05    178.58854798860406
5.998615647598617e-05    179.93924308972333
6.045891139797709e-05    181.30014921353597
6.0935392133212205e-05    182.6713434893221
6.141562804507553e-05    184.05290364768342
6.189964872836596e-05    185.4449080060772
6.238748401112088e-05    186.84743547324194
6.287916395645448e-05    188.26056555365471
6.337471886441043e-05    189.6843783520297
6.387417927382897e-05    191.118954577843
6.437757596422904e-05    192.56437554989856
6.488493995770505e-05    194.02072320091344
6.539630252083859e-05    195.48808008216344
6.59116951666253e-05    196.9665293681372
6.643114965641679e-05    198.45615486024911
6.695469800187811e-05    199.95704094360454
6.748237246696031e-05    201.46927256863714
6.801420556988882e-05    202.99293531886258
6.855023008516743e-05    204.52811542096163
6.909047904559791e-05    206.0748997495951
6.963498574431585e-05    207.63337583223753
7.018378373684219e-05    209.20363185406214
7.073690684315124e-05    210.78575666285144
7.129438914975476e-05    212.37983977395362
7.185626501180261e-05    213.98597137526554
7.24225690551999e-05    215.60424233226135
7.29933361787408e-05    217.2347441930505
7.35686015562592e-05    218.87756919851998
7.414840063879641e-05    220.53281032721895
7.47327691567857e-05    222.20056128061785
7.532174312225428e-05    223.88091646589058
7.591535883104262e-05    225.57397100102713
7.65136528650411e-05    227.27982072015203
7.711666209444444e-05    228.99856217890928
7.772442368002382e-05    230.73029265987475
7.833697507541699e-05    232.47511017801267
7.895435402943632e-05    234.23311348616417
7.957659858839504e-05    236.00440208059513
8.020374709845201e-05    237.78907620656915
8.083583820797468e-05    239.58723686388635
8.147291086992093e-05    241.39898575920643
8.211500434423948e-05    243.22442521712867
8.276215820028935e-05    245.06365830305148
8.34144123192783e-05    246.91678885295272
8.407180689672058e-05    248.78392147909162
8.473438244491404e-05    250.66516157575023
8.540217979543653e-05    252.56061532502244
8.60752401016625e-05    254.4703897026413
8.675360484129875e-05    256.39459248384935
8.743731581894068e-05    258.33333224931357
8.812641516864858e-05    260.2867183910829
8.882094535654406e-05    262.2548611185843
8.9520949183427e-05    264.23787147131094
9.022646978741347e-05    266.23586146270765
9.093755064659371e-05    268.24894408658946
9.16542355817118e-05    270.2772331932346
9.237656875886602e-05    272.3208434902002
9.310459469223064e-05    274.3798905487601
9.383835824679913e-05    276.4544908104027
9.457790464114894e-05    278.54476159335934
9.532327945022827e-05    280.6508210991948
9.607452860816442e-05    282.77278841944224
9.683169841109469e-05    284.9107835422945
9.759483552001932e-05    287.06492735933153
9.836398696367705e-05    289.2353416723144
9.913920014144324e-05    291.4221491557251
9.992052282625086e-05    293.62547316334644
0.0001007080031675347    295.8454378879867
0.00010150168969419836    298.0821684488208
0.00010230163131760505    300.33579089828845
0.00010310787733459163    302.6064322289684
0.00010392047743050673    304.8942203805203
0.00010473948168227248    307.1992842466514
0.00010556494056147057    309.5217536821551
0.00010639690493745276    311.8617595099891
0.00010723542608047543    314.21943352840225
0.00010808055566485931    316.59490851813246
0.000108932345772174    318.9883182497424
0.00010979084889444735    321.39979750116646
0.0001106561179374004    323.8294820736385
0.00011152820622370784    326.27750878295217
0.00011240716749628383    328.7440154650635
0.0001132930559215941    331.22914098359223
0.00011418592609299383    333.7330252374113
0.00011508583303409223    336.25580916826334
0.00011599283220214316    338.7976347684633
0.0001169069794914628    341.3586450886185
0.00011782833123687435    343.93898424544216
0.00011875694421717935    346.53879742960225
0.00011969287565865699    349.158230913626
0.00012063618323859051    351.79743205937893
0.0001215869250888218    354.4565493207338
0.00012254515979933357    357.135732253498
0.0001235109464218602    359.83513152718854
0.00012448434447352675    362.55489893328297
0.00012546541394051674    365.29518739348714
0.00012645421528176872    368.0561509680439
0.0001274508094327023    370.83794486410363
0.00012845525780897323    373.64072544416365
0.00012946762231025798    376.4646502345703
0.0001304879653240688    379.3098779340645
0.0001315163497295979    382.1765684224131
0.00013255283890159272    385.06488276908743
0.00013359749671426128    387.9749832094441
0.0001346503875452085    390.90703307154325
0.00013571157627940365    393.86119687037933
0.0001367811283131785    396.8376403407436
0.00013785910955825819    399.836530446126
0.0001389455864458221    402.8580353876821
0.00014004062593059844    405.9023246132604
0.00014114429549499005    408.9695688264948
0.00014225666315323315    412.05993999596234
0.00014337779745558868    415.173611364419
0.00014450776749256678    418.3107574580657
0.0001456466428991846    421.4715540959312
0.0001467944938592575    424.6561783952243
0.00014795139110972412    427.86480865219505
0.00014911740594500573    431.0976243206247
0.00015029261022139975    434.3548061667184
0.00015147707636150782    437.63653628779247
0.0001526708773586989    440.9429981218688
0.00015387408678160783    444.2743764573274
0.00015508677877866859    447.63085744260854
0.00015630902808268398    451.0126285960237
0.00015754091001543102    454.4198788155934
0.0001587825004923028    457.8527983889828
0.00016003387602698648    461.3115790034868
0.00016129511373617908    464.79641375609594
0.00016256629134433923    468.30749716832327
0.00016384748718847723    471.84502522512406
0.00016513878022298271    475.40919536731354
0.00016644025002449006    479.00020648800677
0.00016775197679678254    482.61825894302865
0.00016907404137573464    486.263554561445
0.0001704065252342941    489.93629665613463
0.0001717495104875022    493.63669003447296
0.00017310307989755437    497.36494100906543
0.00017446731687890051    501.12125740856607
0.00017584230550338534    504.9058485885812
0.00017722813050542955    508.7189254426182
0.0001786248772872512    512.5607004122527
0.00018003263192412942    516.4313873059527
0.000181451481169708    520.3312010619934
0.00018288151246134213    524.2603581224773
0.00018432281392548666    528.2190765021329
0.00018577547438312697    532.2075757993335
0.00018723958335525257    536.226077207219
0.00018871523106837377    540.274803524877
0.00019020250846008238    544.3539791685916
0.00019170150718465507    548.463830183192
0.00019321231961870233    552.6045842534378
0.00019473503886686068    556.7764707155236
0.0001962697587675307    560.9797205686207
0.00019781657389865946    565.2145664903514
0.0001993755795835696    569.4812429066404
0.00020094687189683286    573.7799859937533
0.00020253054767019126    578.1110336429412
0.00020412670449852433    582.4746254710366
0.00020573544074586322    586.8710028325723
0.00020735685555145283    591.3004088319184
0.00020899104883586082    595.763088335592
0.00021063812130713588    600.2592879845422
0.00021229817446701343    604.7892562066111
0.00021397131061717077    609.3532432290149
0.00021565763286553167    613.9515010909367
0.00021735724513262042    618.5842836561933
0.0002190702521579658    623.2518465010829
0.00022079675950655586    627.9544464908947
0.00022253687357534364    632.692342177937
0.0002242907015998034    637.4657939649171
0.00022605835166053954    642.2750641175834
0.00022783993268994684    647.1204167773977
0.0002296355544789236    652.0021179743285
0.00023144532768363765    656.9204356396855
0.00023326936383234536    661.8756396190724
0.000235107775332265    666.868001685389
0.00023696067547650338    671.8977955519454
0.0002388281784510381    676.9652968856277
0.000240710399341754    682.0707833152441
0.00024260745414153548    687.2145341841969
0.00024451945975741466    692.396830424345
0.00024644653401777595    697.6179549219884
0.00024838879567961697    702.8781925625209
0.0002503463644358673    708.1778302437039
0.00025231936092276453    713.517156889047
0.00025430790672728847    718.8964634612229
0.00025631212439465416    724.3160429756067
0.0002583321374358635    729.7761905138793
0.0002603680703353172    735.277203237694
0.0002624200485584856    740.8193804024468
0.00026448819855964107    746.4030233711419
0.00026657264778965023    752.0284356120237
0.00026867352470382887    757.695922577524
0.00027079095876985764    763.4057917826663
0.0002729250804757604    769.1583528978746
0.00027507602133794646    774.9539177638661
0.00027724391390931415    780.7928004058452
0.00027942889178742046    786.6753170477892
0.00028163108962271356    792.6017861268331
0.00028385064312683086    798.5725283076991
0.00028608768908096224    804.5878664972389
0.00028834236534427927    810.6481258590694
0.0002906148108624311    816.7536338282457
0.0002929051656761067    822.9047201255756
0.00029521357092966515    829.1017163356526
0.0002975401688798336    835.3449550990786
0.0002998851029044741    841.6347711159071
0.00030224851751141916    847.9715013738773
0.0003046305583473774    854.3554851625379
0.0003070313722069088    860.787064087429
0.00030945110704147093    867.2665820843944
0.00031188991196853707    873.7943854339069
0.00031434793728078497    880.3708227754826
0.0003168253344553593    886.9962451221932
0.0003193222561632061    893.6710058752094
0.0003218388562784815    900.3954608384468
0.00032437528988803427    907.1699682256536
0.0003269317133009627    913.9948885059994
0.00032950828405824774    920.8705844124288
0.0003321051609424615    927.7974211211522
0.0003347225039875521    934.7757662739406
0.0003373604744887056    941.8059899930468
